VAMAS Surface Chemical Analysis Standard Data Transfer Format 1988 May 4
Not Specified
PREVAC EA15
Operator name not defined
Not Specified
4
Casa Info Follows CasaXPS Version 2.3.26PR1.0
0
Number of Regions=5
SourceAnalyserAngle: Not Specified
NORM
REGULAR
0
1
Data Set
d
0
0
0
0
5
Co2p
Sequence-0
2025
10
30
10
31
21
1
9
Casa Info Follows
0
0
0
0
Description: Region description
SlitS-2.5x25; SlitNr: 8; SlitPos: 230.4
Slices: 494; DetectorRangeX = (0,659); DetectorRangeX = (0,494); YResolution: 0.0101214574899 mm/deg
(0.0 m, 0.0 m, 0 m) Angle: 0 Pixel(0, 0)
XPS
0
Al
1486.6
0
0
0
54
0
FAT
100
5
0
0
0.5
5
0
0
Co-01e9ffdc
2p
-1
Kinetic Energy
eV
676.6
0.1058097724
1
Intensity
d
pulse counting
0.099
10
0
0
0
0
0
425
0
1
199312
202348
204956
199028
196276
201632
195676
199432
194320
198512
200528
201804
200524
194740
195420
194356
196676
198672
198756
202632
201580
198708
194364
192452
197932
197120
198688
198756
201768
199340
198664
197736
197648
190720
193960
201004
193656
193316
196932
196708
196532
201712
201300
196080
198948
198316
192860
197812
195880
201032
197064
195644
193816
197652
199128
197020
195028
191176
193360
196040
197616
194060
195372
197576
198636
195472
191252
190296
191128
192168
190696
191720
197864
196104
192716
198548
197864
191900
189944
190496
189972
195828
189768
196492
189128
194704
187056
195220
191716
191248
191828
191008
192016
190772
188024
192072
196312
192264
187008
190392
189380
192704
191476
194932
194208
193448
198764
189940
191028
196784
199480
193052
196300
195056
195984
196168
199096
199360
204428
200516
199496
192832
197636
205360
206208
201324
206344
204728
206568
211408
210272
209188
207420
211692
209856
207864
212616
215792
212960
213188
214028
215208
211816
213836
212252
214064
214148
206072
211296
203052
209984
206596
203264
193988
191652
195184
189208
186780
185652
187688
183940
182820
178864
177328
178972
173804
174544
175708
176900
176776
173860
177292
174888
172288
173184
175500
176560
177264
175460
175948
169576
176388
178732
178432
175928
180868
177124
176016
179736
176260
179540
177156
179620
180652
178744
180224
177452
175336
180040
177792
172968
173868
173408
169900
176892
177520
174072
176100
174268
171624
174900
172888
175348
179992
176808
174120
171464
175248
172356
175168
171176
172236
174284
169692
168684
171156
171540
177332
173528
175744
174900
170936
177960
176584
175284
171472
175460
171704
178540
177388
176520
176344
178012
177088
179820
179952
177732
177592
177888
181632
182312
181960
188948
187324
186700
187940
185324
189688
191416
193324
192036
197784
197948
198176
194404
198772
204888
205176
207116
206596
205768
208488
218144
217896
218172
219492
218960
224452
229664
228900
233692
232476
230684
228296
240656
238496
235828
232304
235896
232944
228224
224532
222612
220124
215668
212224
202436
201924
196556
189996
183968
179704
180616
168060
163268
164152
151420
158824
153188
149352
150344
146036
149416
148380
149664
147892
145540
143288
146196
148864
146672
149376
143200
147000
148340
148212
142856
141488
144064
144660
146532
146852
144072
145468
141112
147116
141508
141796
142932
142524
144964
144136
142124
145544
144636
145428
148160
143604
137828
140452
143320
141476
145744
142324
141244
137500
142592
143360
141428
138172
143640
140080
140336
139424
136888
138032
136364
138148
143552
139316
142560
142296
142364
138740
136440
134948
133936
136152
134512
138232
135948
136604
135448
125600
132276
135824
136616
135532
135332
138160
129816
136792
130864
132140
128492
128184
132700
132892
130436
128880
132760
131212
126384
131968
130104
127340
123732
123268
121540
120800
121952
120720
120592
120452
121620
121836
119340
117088
122440
117624
119768
115796
120256
119552
118620
La3d
Sequence-0
2025
10
30
10
31
21
1
17
Casa Info Follows
0
1
annot comps v2315 Display 0.05 0.2 RGB(0,0,0) Font(37,34,400,0,Arial)

1
CASA region (*La-c6f9f0a6 3d*) (*Tougaard*) 627.99052 658.22358 1 2 0 0 0 -450 0 0 (*NoTag*) 0 0 0
5
CASA comp (*La-3d5/2 -1*) (*LA(1,643)*) Area 395781.4 1e-020 8967476 -1 1 MFWHM 3.1137477 1.3120412 32.801029 -1 1 Position 653.738 645.70346 657.39642 -1 1 RSF 1 MASS 0 INDEX -1 (*NoTag*) CONST (**) UNCORRECTEDRSF 0
CASA comp (*La-3d 5/2*) (*LA(1,643)*) Area 376934.84 1e-020 8967476 -1 1 MFWHM 3.1137477 0.44440104 11.110026 0 1 Position 649.98167 645.70346 657.39642 -1 1 RSF 1 MASS 0 INDEX -1 (*NoTag*) CONST (**) UNCORRECTEDRSF 0
CASA comp (*La-3d 3/2-2*) (*LA(1,643)*) Area 267596.81 1e-020 8967476 -1 1 MFWHM 3.1137477 1.1656689 29.141722 0 1 Position 636.92434 629.17015 640.42803 -1 1 RSF 1 MASS 0 INDEX -1 (*NoTag*) CONST (**) UNCORRECTEDRSF 0
CASA comp (*La-3d 3/2-1*) (*LA(1,643)*) Area 245798.94 1e-020 8967476 -1 1 MFWHM 3.1137477 1.1656689 29.141722 0 1 Position 633.02934 629.17015 640.42803 -1 1 RSF 1 MASS 0 INDEX -1 (*NoTag*) CONST (**) UNCORRECTEDRSF 0
CASA comp (*La-3d background*) (*LA(1,643)*) Area 366829.96 1e-020 9624633.7 -1 1 MFWHM 14.09777 0.76423201 19.1058 -1 1 Position 643.4024 628.41159 657.88672 -1 1 RSF 1 MASS 0 INDEX -1 (*NoTag*) CONST (**) UNCORRECTEDRSF 0
Description: Region description
SlitS-2.5x25; SlitNr: 8; SlitPos: 230.4
Slices: 494; DetectorRangeX = (0,659); DetectorRangeX = (0,494); YResolution: 0.0101214574899 mm/deg
(0.0 m, 0.0 m, 0 m) Angle: 0 Pixel(0, 0)
XPS
0
Al
1486.6
0
0
0
54
0
FAT
100
5
0
0
0.5
5
0
0
La-c6f9f0a6
3d
-1
Kinetic Energy
eV
606.6
0.1058097724
1
Intensity
d
pulse counting
0.099
10
0
0
0
0
1
PROPAGATION_CONVERGED
d
1
662
0
1
395212
395892
391748
390724
392152
391448
396792
392176
393308
392764
395420
391840
388852
393572
387616
391336
389180
392596
391324
388332
384164
394012
390100
389788
391884
391060
395296
391296
390488
390652
393552
391068
392252
388468
388264
384548
389464
386472
384172
385316
393300
387428
388528
382700
394148
391240
392012
385312
388088
374000
393704
391692
389896
393184
388364
395216
381284
392912
388908
389552
392484
387584
395392
386376
392072
383168
392320
391232
396020
393132
391004
382792
387536
385616
389844
393348
392652
390156
382552
385392
380520
382216
382228
390676
390708
388236
389480
382388
383356
382800
381380
393356
388380
396656
389136
390012
389412
377672
388120
391884
387456
382128
385308
389132
397520
396220
394716
389288
386428
388636
382320
388316
383996
388304
381940
386432
381624
389928
388464
390412
393096
387432
389556
387316
385292
390648
383072
382508
385464
391884
395044
393664
383120
390440
379704
381568
391620
389740
385232
389564
386592
378244
380828
375176
393640
387536
386360
386340
385632
383992
376508
381272
388680
379800
383804
388352
382592
384612
375584
383112
383344
379156
384952
375684
382412
382940
378628
383124
374608
379028
379512
381736
388088
379772
373556
375160
378420
380140
368368
381876
377264
375776
376076
379004
369780
378668
373756
367068
375296
374728
367064
362700
367628
373160
370964
364644
362168
367296
363832
362732
367820
358872
357952
359700
359104
366516
359220
356816
357420
360360
362828
363344
357180
354100
359956
359640
356480
360044
352944
351068
366264
362096
362772
363492
356988
362968
364336
362152
362052
371148
365780
366624
367012
364036
380628
377168
378212
376244
371892
381096
388840
389884
385232
394912
391456
394856
403748
398920
397332
397136
399116
395532
405044
399992
396168
399120
387380
386488
387884
385608
391036
377304
383168
376004
378312
375204
376312
367240
369552
362060
366944
379400
376420
382688
377580
380008
377196
376820
376408
379076
378500
385536
390400
385224
382712
384248
389612
395272
391596
389852
390932
394204
389332
384464
386612
382860
369040
371224
355432
351348
348300
344464
344160
337744
331428
333600
330904
325240
323380
319404
316288
319120
315120
319316
310412
314588
315376
312580
318072
312128
317992
311768
308372
317576
309076
305888
299524
314980
310056
308928
307300
310972
304788
308028
299800
298672
301632
299796
298548
301224
299280
292412
301632
299124
303436
296472
301652
297292
292188
302464
287192
292256
290148
286008
288628
291696
290396
288720
289312
294488
294124
284228
285204
292760
284880
290664
291276
291936
290656
286968
289988
289632
288268
284140
289116
289668
285324
289824
291648
292996
291116
292516
299392
293180
297256
302556
294968
297968
301816
303580
308288
311132
312524
310080
314996
322700
325752
326388
335356
336332
334548
344816
350108
356200
359884
365788
360412
370648
364868
365732
365868
370428
366292
365600
359484
366268
356940
350892
349312
350028
348208
344484
347104
336284
337664
337628
334184
330460
339840
328436
335672
332096
344464
337752
339604
340184
337096
347152
338180
343732
347076
350632
349744
358940
356896
355104
360396
357404
363936
358516
354328
361820
354408
350700
345528
326900
323580
320132
309868
303180
297712
290252
280432
278488
276644
269164
264156
263216
262352
256476
253396
249512
253208
244720
244936
252476
245824
253660
249424
250016
250612
244220
247280
245400
247552
237800
233964
241976
242048
245696
235764
238848
238644
240500
240516
243020
239972
242192
237360
235268
229812
237748
232024
233500
235808
234456
229620
231580
232084
234360
233116
234208
228420
231828
236196
231836
232832
227328
224904
230892
230336
231876
228264
229708
234708
231204
225312
221636
224888
225536
228272
228492
222592
227748
224736
221548
229716
226344
229124
224508
225948
222884
227996
229384
228324
224360
227128
229632
221548
221668
228180
223000
217080
225776
221988
225792
224292
222180
225824
224132
220440
221528
220528
222644
218780
228548
218776
220320
222308
226040
224088
222668
224076
224272
220032
226852
217376
219420
217564
223440
221088
215108
220440
222708
214476
218776
215664
222908
221168
215064
220872
219428
217300
219652
218728
221080
221908
222172
220184
220164
223312
218060
215464
218000
217096
220332
212388
215960
216448
219740
218420
225460
219080
213312
214708
219392
214000
219432
209376
216772
217464
215080
212424
208568
216232
213292
219116
215616
217840
216232
213372
215220
218728
216140
216088
216684
214180
215712
220748
215176
218756
215052
210344
210796
214124
210664
211132
214968
210756
205512
217456
209464
214968
210624
212888
213300
215216
209724
207552
214256
210792
210656
O1s
Sequence-0
2025
10
30
10
31
21
1
9
Casa Info Follows
0
0
0
0
Description: Region description
SlitS-2.5x25; SlitNr: 8; SlitPos: 230.4
Slices: 494; DetectorRangeX = (0,659); DetectorRangeX = (0,494); YResolution: 0.0101214574899 mm/deg
(0.0 m, 0.0 m, 0 m) Angle: 0 Pixel(0, 0)
XPS
0
Al
1486.6
0
0
0
54
0
FAT
100
5
0
0
0.5
5
0
0
O-c147aacb
1s
-1
Kinetic Energy
eV
941.6
0.1058097724
1
Intensity
d
pulse counting
0.099
10
0
0
0
0
0
284
0
1
82484
87612
88976
81168
87572
86648
84808
83484
83768
85576
84000
84904
85192
84028
84284
85256
83972
82636
82176
84184
87048
86252
81596
83064
85088
83644
83116
83228
82380
84096
86184
83156
85936
84816
85064
84288
83808
83584
83468
84620
85556
82824
80672
84244
81220
83212
80820
81352
76996
81480
82384
79920
79428
81384
80460
80452
80332
80304
75360
74768
77108
73516
75732
72820
73752
73676
73452
74996
77000
76844
76276
75140
74612
76572
72848
72052
71752
69508
73376
75108
75428
74108
71224
73472
72632
71084
75644
73240
71616
72888
72096
68376
73008
72412
73060
70188
70512
71528
77420
74712
73216
76028
77192
75036
80016
80596
84088
82568
84040
88576
89132
94024
97548
100712
103488
108240
110664
118176
117460
127844
135096
144564
150288
154068
166424
177300
184220
197356
203268
216472
220004
227344
234228
243272
243468
240160
242152
233720
228612
228588
213216
197616
197504
189968
186456
170828
173056
161124
155972
157112
158892
148392
153976
155076
157496
165560
173048
182760
192460
205688
207388
214248
207984
194096
192568
177244
156316
138928
123468
104480
91608
84048
76812
66624
64192
62328
62800
63680
61796
60788
59020
61320
61648
59656
59960
61160
60296
58812
60124
58048
59976
57344
58216
57424
57348
61340
61516
58736
59288
59108
56320
58972
59008
58404
58880
57936
53352
58512
57928
59772
60016
59092
59632
60084
58112
59088
58304
57216
59376
59648
58036
58376
61236
59376
59240
58756
56684
56108
56444
59128
59160
60208
57220
58352
61052
58404
58244
62388
60140
63628
56136
58624
57600
58536
57640
53748
56176
61048
55948
58208
59420
58424
56940
58176
55448
60836
57400
58524
56376
58888
55892
55248
57860
56548
57096
55712
60164
58184
57588
56256
56568
59336
59040
57492
56400
60364
56584
62192
61048
60244
55676
57628
55996
59448
Sr3d
Sequence-0
2025
10
30
10
31
21
1
9
Casa Info Follows
0
0
0
0
Description: Region description
SlitS-2.5x25; SlitNr: 8; SlitPos: 230.4
Slices: 494; DetectorRangeX = (0,659); DetectorRangeX = (0,494); YResolution: 0.0101214574899 mm/deg
(0.0 m, 0.0 m, 0 m) Angle: 0 Pixel(0, 0)
XPS
0
Al
1486.6
0
0
0
54
0
FAT
100
5
0
0
0.5
5
0
0
Sr-98727850
3d
-1
Kinetic Energy
eV
1336.6
0.1058097724
1
Intensity
d
pulse counting
0.099
10
0
0
0
0
0
284
0
1
43660
44380
41300
39932
42772
40760
43460
41752
41608
39896
41724
42572
41688
41252
41612
42836
44532
43300
42724
42716
41320
41116
42052
38068
40128
43300
41872
40468
42064
42116
41988
42192
44200
42676
40964
42392
41812
42932
42116
45148
43708
42456
42384
42696
42760
42064
44008
40788
44972
43496
42888
43112
41172
43364
43200
43032
43648
42168
44316
40836
41656
41208
42276
41932
40628
41140
44128
41492
41596
41732
41484
38296
40244
38724
40408
41600
40080
41060
41524
40340
39388
40016
39676
42124
38716
41152
37912
41152
38520
38500
37672
38148
37172
39216
38028
38408
38500
37224
41484
38376
37620
36192
35748
37112
39084
36084
38384
38836
38760
37616
37824
38012
37348
40272
39248
37340
38940
40572
39440
41160
40072
41948
40716
40380
44480
42000
43648
44740
44116
44672
47208
49296
52564
54180
57412
60420
64788
63036
71884
78964
78716
82432
83156
89020
86188
90176
91284
90752
93384
95528
97084
103016
105740
107988
115572
123756
126892
131712
143772
144016
148596
146220
147056
139424
133032
117696
110988
104304
97656
90796
92108
90428
98856
97652
96604
101912
102140
103544
95636
93212
89208
81176
69352
64432
55072
48140
42748
40744
36828
34424
34848
34148
32644
33300
31880
35120
34624
32472
31280
32644
30692
33468
32064
32132
34096
32776
31892
31824
33712
33320
30880
30308
31168
31260
28328
30120
30192
32392
31564
29392
29896
29200
31836
32116
29688
28804
32456
31668
30620
27852
28808
30800
28740
30664
28448
29564
28440
29384
28984
29028
29648
28504
29564
28780
26980
30360
29108
28220
31468
29376
31384
29944
29344
28948
26404
27248
29692
28876
27220
29272
27920
26384
25868
29640
30464
29436
29700
29228
30104
28716
30224
28420
29444
30864
28016
28120
30520
28812
27144
27552
27684
28344
28104
29644
SurveyScan
Sequence-0
2025
10
30
10
31
21
1
9
Casa Info Follows
0
0
0
0
Description: Region description
SlitS-2.5x25; SlitNr: 8; SlitPos: 230.4
Slices: 494; DetectorRangeX = (0,659); DetectorRangeX = (0,494); YResolution: 0.0101214574899 mm/deg
(0.0 m, 0.0 m, 0 m) Angle: 0 Pixel(0, 0)
XPS
0
Al
1486.6
0
0
0
54
0
FAT
200
5
0
0
0.5
5
0
0
SurveyScan-20dd4b35

-1
Kinetic Energy
eV
286.6
0.9875578756
1
Intensity
d
pulse counting
0.033
3
0
0
0
0
0
1215
0
1
235188
241940
241404
242692
235948
241276
243884
243800
240540
242520
248784
248600
241588
244696
241452
239424
247512
249892
241692
240168
243924
239796
248496
252660
253392
249168
243996
241256
247904
244924
237736
249152
247488
251548
250388
254048
244404
246500
241772
252744
246068
237852
237744
238116
243760
245968
252280
249488
248964
246416
248364
250096
247748
246476
241604
244080
250504
246936
241888
241700
244628
247012
243620
238052
241180
251212
245888
240516
241080
248252
245224
241736
244372
245320
243416
242580
255568
246600
247312
235684
238340
234212
241148
239316
239604
234584
240440
239996
239964
237376
235024
238188
236572
244328
237852
234896
229236
228256
229196
237412
231308
233268
236076
232256
234848
235656
234112
240092
231536
230824
235916
229660
233132
235060
230668
226156
238988
230652
233568
230624
231036
234896
230412
240452
230436
232512
229912
233240
227356
237228
228892
226656
231040
236320
232296
231720
228496
234584
225844
222768
226132
228148
228056
227852
234396
229780
224464
226000
223932
222720
227344
226884
221288
224548
226260
228180
217844
230212
227392
230492
229228
222812
234644
219580
220188
223232
229724
223944
226992
232028
224812
231436
224568
227128
221952
219156
224408
226824
227064
222112
224440
227212
224108
227316
220868
225672
222168
222464
224584
224080
228536
219996
230428
228476
228564
221952
224360
226060
221272
227368
226236
227116
230272
224732
224936
235440
230008
230028
220968
231264
233564
232464
229020
219052
226152
221004
217688
213868
223520
217388
216332
217196
220828
226036
222008
224408
236288
240048
241980
234224
231468
242228
238748
229904
225456
221048
208332
210040
209304
205040
209028
205772
205472
200252
199496
202936
197192
201236
205456
201564
199976
208224
203368
201920
206992
204240
202668
199060
204260
194504
202240
198316
194504
199852
195812
200248
203192
198528
195260
200168
201612
201604
194492
199340
200600
198172
204444
197092
197040
202564
194760
196540
196008
194616
198744
195224
192676
194440
189712
196344
197184
193236
189536
195052
199376
204208
190564
197688
197344
192964
188808
193148
193432
197972
190484
199336
189468
197788
195868
187924
196728
192804
192196
191588
192432
190708
196088
190688
198904
196256
198304
197572
193004
198928
189228
194276
193832
187048
192224
193840
188504
186076
192108
187184
187768
186700
187392
188132
191500
183764
187320
190144
184884
177536
187888
184336
178808
174876
174024
189892
190624
191700
192844
186296
192012
189100
187612
160852
157556
148572
146604
145280
144576
143296
145108
153076
154276
171236
179432
175472
163964
164720
171964
161796
140220
127068
126212
122128
115492
112540
119108
105304
110908
111540
112772
112292
111416
113872
114488
109744
111948
107012
110904
105808
108604
110068
111196
103912
105580
108476
108352
105660
102256
103304
100600
101652
102220
106896
105964
111052
113824
107932
100964
97700
99772
95148
96112
94008
94812
91952
96444
97756
97956
102276
108928
123728
122396
110064
87816
83312
77928
77060
77500
79288
76860
74964
75160
68260
70784
64888
66964
64008
62912
65860
63608
64796
65140
63512
64336
66052
61604
61548
58776
63796
58540
59312
58388
59608
62472
61512
59592
56928
56080
58344
56136
58428
56920
60800
57124
57032
57148
57712
57412
59308
56448
56608
55956
54092
58804
55504
54956
55996
57208
60628
59388
57924
56276
61848
62604
61232
62980
60836
60876
60944
57936
60332
57904
54512
53580
53912
51256
50248
53436
50952
49952
49472
53992
52488
51636
49492
51268
53316
50280
51392
52644
48092
48740
46632
49332
46424
45428
44004
50052
49272
46452
47912
47788
48740
46136
45180
46216
46636
48784
47628
45240
46316
48724
44880
46892
50704
43308
49764
49056
52380
48072
47888
47220
46736
48732
46956
49220
48580
46064
48820
45740
47396
47208
46948
45092
48556
46116
47108
45492
49632
46240
51540
48396
46440
48412
49928
49872
46884
48520
50748
47868
53164
50128
51728
47320
51324
47652
47552
49664
49152
44920
44860
49168
48132
49156
52632
51360
47312
50284
48192
50052
49224
53900
49164
49800
47704
48680
51736
51716
49596
45040
48332
51688
48872
51356
49952
47952
50204
51600
52228
48472
49480
49008
48852
50888
52044
54736
49204
49940
53016
51964
51508
52608
51112
53228
49892
51520
52416
52072
51052
50620
51476
47980
49800
48136
53000
50640
50456
51236
49064
49616
52460
55540
52944
48948
54208
52784
50992
52308
52908
51040
52900
48732
48476
46804
47780
48600
49324
48396
46272
45392
50216
47672
45760
44252
44796
42116
40680
38400
40128
41920
48496
68664
98820
114276
98012
99448
87096
52088
32048
32848
32428
30460
33072
32592
30628
31492
31848
31740
30172
30328
33904
32864
31292
35172
33660
33440
33376
33824
35260
28888
33188
31332
30812
34320
34840
33488
32308
31988
31476
33280
34088
32752
33728
34580
33276
33948
31608
33904
34848
35512
35056
35016
32172
33904
32376
31900
34552
30632
33276
36500
32828
33616
34876
31056
34800
34740
36524
32792
34396
31780
34748
35140
34860
35892
32896
32648
33704
38348
33336
36780
35080
34168
36184
32988
32368
32500
37736
33704
39016
36124
36732
35848
36048
34736
38584
37656
33576
35588
35680
36892
37216
39104
36644
40316
34664
34292
38488
35288
36636
36712
36888
37224
35848
37948
39816
36076
38264
39260
39896
39908
38632
39328
39120
37500
36284
36012
38148
36916
39456
37164
37784
34648
35412
37188
37664
38296
40744
40464
39092
40100
39604
39312
39384
39256
36540
36904
40912
37800
40104
39992
40648
39532
36940
37016
37260
40936
38488
38972
38016
37124
38172
41700
41280
36664
40964
42700
38860
37424
40296
35804
40108
37916
42704
38872
39748
42976
40956
44360
46948
49732
44876
48544
41996
43900
40616
39924
38280
38988
41240
39756
36120
38580
36244
39988
40928
37220
41024
38476
40840
36984
36448
38660
40184
42168
39528
42032
40968
41044
39088
42200
39528
39740
38020
44604
41984
40088
37716
40620
42436
37332
41844
40400
40376
41104
42396
44296
43084
43476
41656
43940
43572
41268
42700
42468
42864
40776
41504
40456
43192
41088
41500
38416
39044
39136
40700
40232
38352
44144
46444
44380
47544
57140
65144
58300
43432
40804
46824
49500
59516
56940
52284
42704
40032
40580
38576
39796
43364
57256
69996
68768
66484
46284
36972
36568
35168
32232
34640
28776
29352
29528
32064
26808
32348
30680
29140
30112
29824
29604
29344
30388
29020
29068
31436
31836
30732
29308
31640
29156
30000
29836
31948
32344
35356
32652
33788
37056
36440
33224
27792
29984
27960
30096
29492
31804
27504
31648
29368
26668
25860
30472
28824
25116
27692
28168
27280
27684
29320
29772
31416
28436
28148
26620
27688
27592
26912
25400
27528
29048
29068
29064
31168
29460
31864
34480
34068
30956
27856
23968
26892
26580
23144
24668
24120
25192
27588
25224
27508
25492
26388
25800
24820
25508
23640
26940
24828
26236
24900
28840
25728
27540
26996
27504
27212
26604
26696
27328
27704
27632
27068
26424
27308
27324
24600
25000
24472
27800
25888
22876
25296
26472
24116
26108
24960
25312
26712
25128
25120
22876
21940
20724
22696
25772
27944
37608
55840
67572
67332
53968
39532
22760
20028
18188
17324
18024
17068
17704
16100
15788
17192
17748
16056
16256
14308
15476
16636
17268
16932
17644
16696
17140
17976
18424
22080
25952
31900
41904
38256
36276
35156
27400
16284
11332
8916
9124
9340
9500
8844
10264
8960
10880
8748
7608
10600
9364
8792
8316
8804
9436
7676
9208
9824
8420
7300
8424
8696
7392
9152
8588
9184
8700
9512
9344
9756
10324
9780
11108
11752
11776
14708
13792
12336
10792
6460
5760
5408
5088
4372
5428
5936
5068
5300
4608
5232
4860
5208
5056
5208
6100
5164
5980
5052
5860
7336
6288
7232
6828
5056
6012
3856
4864
4632
4704
4232
4248
3596
3584
3432
4828
5296
6544
10044
13036
13628
9476
7732
4084
3224
2544
2212
1468
1900
1388
2040
2532
3832
4532
2504
2912
3088
2064
end of experiment
